Created as New Dataset,Sample 957 By Analyst Date Thursday, January 20 2022
cm-1,%T
4000.00,99.53
3999.00,99.54
3998.00,99.54
3997.00,99.54
3996.00,99.54
3995.00,99.54
3994.00,99.54
3993.00,99.54
3992.00,99.54
3991.00,99.54
3990.00,99.54
3989.00,99.54
3988.00,99.54
3987.00,99.54
3986.00,99.53
3985.00,99.53
3984.00,99.53
3983.00,99.52
3982.00,99.52
3981.00,99.53
3980.00,99.53
3979.00,99.52
3978.00,99.52
3977.00,99.52
3976.00,99.52
3975.00,99.52
3974.00,99.53
3973.00,99.53
3972.00,99.53
3971.00,99.53
3970.00,99.53
3969.00,99.53
3968.00,99.53
3967.00,99.52
3966.00,99.52
3965.00,99.52
3964.00,99.52
3963.00,99.52
3962.00,99.52
3961.00,99.52
3960.00,99.51
3959.00,99.51
3958.00,99.51
3957.00,99.51
3956.00,99.51
3955.00,99.51
3954.00,99.51
3953.00,99.51
3952.00,99.51
3951.00,99.52
3950.00,99.52
3949.00,99.53
3948.00,99.53
3947.00,99.53
3946.00,99.53
3945.00,99.52
3944.00,99.51
3943.00,99.51
3942.00,99.51
3941.00,99.51
3940.00,99.51
3939.00,99.51
3938.00,99.51
3937.00,99.52
3936.00,99.52
3935.00,99.52
3934.00,99.53
3933.00,99.53
3932.00,99.53
3931.00,99.53
3930.00,99.53
3929.00,99.52
3928.00,99.52
3927.00,99.51
3926.00,99.51
3925.00,99.51
3924.00,99.51
3923.00,99.50
3922.00,99.50
3921.00,99.50
3920.00,99.50
3919.00,99.50
3918.00,99.50
3917.00,99.50
3916.00,99.49
3915.00,99.49
3914.00,99.50
3913.00,99.50
3912.00,99.51
3911.00,99.51
3910.00,99.51
3909.00,99.51
3908.00,99.51
3907.00,99.51
3906.00,99.51
3905.00,99.51
3904.00,99.51
3903.00,99.51
3902.00,99.51
3901.00,99.51
3900.00,99.52
3899.00,99.52
3898.00,99.52
3897.00,99.52
3896.00,99.51
3895.00,99.51
3894.00,99.51
3893.00,99.50
3892.00,99.49
3891.00,99.48
3890.00,99.48
3889.00,99.47
3888.00,99.47
3887.00,99.48
3886.00,99.49
3885.00,99.50
3884.00,99.50
3883.00,99.50
3882.00,99.50
3881.00,99.50
3880.00,99.50
3879.00,99.50
3878.00,99.50
3877.00,99.50
3876.00,99.50
3875.00,99.49
3874.00,99.49
3873.00,99.49
3872.00,99.49
3871.00,99.49
3870.00,99.49
3869.00,99.49
3868.00,99.49
3867.00,99.49
3866.00,99.49
3865.00,99.49
3864.00,99.48
3863.00,99.48
3862.00,99.48
3861.00,99.48
3860.00,99.48
3859.00,99.48
3858.00,99.48
3857.00,99.49
3856.00,99.49
3855.00,99.50
3854.00,99.50
3853.00,99.50
3852.00,99.50
3851.00,99.50
3850.00,99.49
3849.00,99.49
3848.00,99.49
3847.00,99.49
3846.00,99.49
3845.00,99.49
3844.00,99.49
3843.00,99.49
3842.00,99.48
3841.00,99.48
3840.00,99.48
3839.00,99.49
3838.00,99.49
3837.00,99.49
3836.00,99.49
3835.00,99.50
3834.00,99.50
3833.00,99.50
3832.00,99.50
3831.00,99.49
3830.00,99.49
3829.00,99.48
3828.00,99.48
3827.00,99.48
3826.00,99.49
3825.00,99.49
3824.00,99.50
3823.00,99.50
3822.00,99.51
3821.00,99.51
3820.00,99.50
3819.00,99.50
3818.00,99.51
3817.00,99.51
3816.00,99.51
3815.00,99.51
3814.00,99.51
3813.00,99.51
3812.00,99.51
3811.00,99.52
3810.00,99.52
3809.00,99.52
3808.00,99.52
3807.00,99.52
3806.00,99.53
3805.00,99.53
3804.00,99.53
3803.00,99.53
3802.00,99.54
3801.00,99.54
3800.00,99.54
3799.00,99.54
3798.00,99.54
3797.00,99.54
3796.00,99.54
3795.00,99.54
3794.00,99.54
3793.00,99.54
3792.00,99.54
3791.00,99.53
3790.00,99.53
3789.00,99.53
3788.00,99.53
3787.00,99.54
3786.00,99.54
3785.00,99.55
3784.00,99.55
3783.00,99.54
3782.00,99.54
3781.00,99.54
3780.00,99.54
3779.00,99.54
3778.00,99.55
3777.00,99.56
3776.00,99.56
3775.00,99.57
3774.00,99.57
3773.00,99.57
3772.00,99.57
3771.00,99.56
3770.00,99.56
3769.00,99.56
3768.00,99.56
3767.00,99.57
3766.00,99.57
3765.00,99.57
3764.00,99.56
3763.00,99.56
3762.00,99.56
3761.00,99.56
3760.00,99.57
3759.00,99.57
3758.00,99.57
3757.00,99.58
3756.00,99.59
3755.00,99.59
3754.00,99.59
3753.00,99.59
3752.00,99.58
3751.00,99.58
3750.00,99.59
3749.00,99.60
3748.00,99.60
3747.00,99.61
3746.00,99.61
3745.00,99.60
3744.00,99.60
3743.00,99.59
3742.00,99.58
3741.00,99.58
3740.00,99.58
3739.00,99.58
3738.00,99.58
3737.00,99.58
3736.00,99.58
3735.00,99.59
3734.00,99.59
3733.00,99.59
3732.00,99.59
3731.00,99.60
3730.00,99.60
3729.00,99.60
3728.00,99.60
3727.00,99.59
3726.00,99.59
3725.00,99.59
3724.00,99.59
3723.00,99.60
3722.00,99.60
3721.00,99.60
3720.00,99.59
3719.00,99.59
3718.00,99.58
3717.00,99.58
3716.00,99.58
3715.00,99.58
3714.00,99.58
3713.00,99.58
3712.00,99.58
3711.00,99.58
3710.00,99.58
3709.00,99.58
3708.00,99.58
3707.00,99.58
3706.00,99.58
3705.00,99.57
3704.00,99.57
3703.00,99.57
3702.00,99.57
3701.00,99.58
3700.00,99.57
3699.00,99.57
3698.00,99.57
3697.00,99.58
3696.00,99.58
3695.00,99.58
3694.00,99.58
3693.00,99.58
3692.00,99.58
3691.00,99.58
3690.00,99.59
3689.00,99.59
3688.00,99.59
3687.00,99.59
3686.00,99.59
3685.00,99.59
3684.00,99.59
3683.00,99.58
3682.00,99.58
3681.00,99.58
3680.00,99.58
3679.00,99.57
3678.00,99.57
3677.00,99.57
3676.00,99.57
3675.00,99.58
3674.00,99.59
3673.00,99.60
3672.00,99.61
3671.00,99.61
3670.00,99.61
3669.00,99.61
3668.00,99.60
3667.00,99.59
3666.00,99.59
3665.00,99.59
3664.00,99.59
3663.00,99.59
3662.00,99.59
3661.00,99.60
3660.00,99.61
3659.00,99.62
3658.00,99.63
3657.00,99.64
3656.00,99.64
3655.00,99.64
3654.00,99.64
3653.00,99.63
3652.00,99.63
3651.00,99.63
3650.00,99.63
3649.00,99.63
3648.00,99.63
3647.00,99.63
3646.00,99.63
3645.00,99.63
3644.00,99.63
3643.00,99.64
3642.00,99.64
3641.00,99.64
3640.00,99.64
3639.00,99.64
3638.00,99.64
3637.00,99.64
3636.00,99.65
3635.00,99.65
3634.00,99.66
3633.00,99.66
3632.00,99.65
3631.00,99.65
3630.00,99.64
3629.00,99.64
3628.00,99.64
3627.00,99.64
3626.00,99.64
3625.00,99.64
3624.00,99.64
3623.00,99.64
3622.00,99.64
3621.00,99.64
3620.00,99.64
3619.00,99.64
3618.00,99.65
3617.00,99.65
3616.00,99.65
3615.00,99.64
3614.00,99.63
3613.00,99.62
3612.00,99.62
3611.00,99.62
3610.00,99.62
3609.00,99.62
3608.00,99.62
3607.00,99.61
3606.00,99.61
3605.00,99.61
3604.00,99.61
3603.00,99.61
3602.00,99.62
3601.00,99.62
3600.00,99.62
3599.00,99.62
3598.00,99.62
3597.00,99.61
3596.00,99.61
3595.00,99.61
3594.00,99.61
3593.00,99.61
3592.00,99.61
3591.00,99.61
3590.00,99.60
3589.00,99.59
3588.00,99.59
3587.00,99.58
3586.00,99.58
3585.00,99.59
3584.00,99.60
3583.00,99.60
3582.00,99.60
3581.00,99.60
3580.00,99.60
3579.00,99.60
3578.00,99.61
3577.00,99.61
3576.00,99.61
3575.00,99.60
3574.00,99.59
3573.00,99.58
3572.00,99.57
3571.00,99.58
3570.00,99.58
3569.00,99.59
3568.00,99.60
3567.00,99.59
3566.00,99.58
3565.00,99.58
3564.00,99.58
3563.00,99.58
3562.00,99.58
3561.00,99.58
3560.00,99.57
3559.00,99.57
3558.00,99.57
3557.00,99.57
3556.00,99.57
3555.00,99.57
3554.00,99.57
3553.00,99.57
3552.00,99.57
3551.00,99.57
3550.00,99.57
3549.00,99.56
3548.00,99.56
3547.00,99.56
3546.00,99.55
3545.00,99.55
3544.00,99.55
3543.00,99.54
3542.00,99.53
3541.00,99.53
3540.00,99.52
3539.00,99.52
3538.00,99.52
3537.00,99.52
3536.00,99.52
3535.00,99.52
3534.00,99.52
3533.00,99.52
3532.00,99.51
3531.00,99.51
3530.00,99.52
3529.00,99.52
3528.00,99.51
3527.00,99.51
3526.00,99.50
3525.00,99.49
3524.00,99.49
3523.00,99.48
3522.00,99.48
3521.00,99.48
3520.00,99.48
3519.00,99.48
3518.00,99.48
3517.00,99.48
3516.00,99.49
3515.00,99.49
3514.00,99.48
3513.00,99.47
3512.00,99.46
3511.00,99.46
3510.00,99.45
3509.00,99.45
3508.00,99.44
3507.00,99.44
3506.00,99.43
3505.00,99.43
3504.00,99.43
3503.00,99.43
3502.00,99.42
3501.00,99.42
3500.00,99.41
3499.00,99.42
3498.00,99.42
3497.00,99.41
3496.00,99.41
3495.00,99.39
3494.00,99.38
3493.00,99.37
3492.00,99.36
3491.00,99.36
3490.00,99.36
3489.00,99.36
3488.00,99.35
3487.00,99.34
3486.00,99.33
3485.00,99.32
3484.00,99.31
3483.00,99.30
3482.00,99.29
3481.00,99.28
3480.00,99.27
3479.00,99.25
3478.00,99.24
3477.00,99.23
3476.00,99.22
3475.00,99.22
3474.00,99.21
3473.00,99.20
3472.00,99.19
3471.00,99.17
3470.00,99.15
3469.00,99.13
3468.00,99.12
3467.00,99.10
3466.00,99.09
3465.00,99.08
3464.00,99.06
3463.00,99.04
3462.00,99.01
3461.00,98.98
3460.00,98.95
3459.00,98.92
3458.00,98.89
3457.00,98.85
3456.00,98.82
3455.00,98.77
3454.00,98.73
3453.00,98.68
3452.00,98.63
3451.00,98.58
3450.00,98.53
3449.00,98.47
3448.00,98.41
3447.00,98.35
3446.00,98.27
3445.00,98.19
3444.00,98.11
3443.00,98.03
3442.00,97.94
3441.00,97.84
3440.00,97.74
3439.00,97.63
3438.00,97.52
3437.00,97.41
3436.00,97.29
3435.00,97.17
3434.00,97.05
3433.00,96.92
3432.00,96.80
3431.00,96.68
3430.00,96.56
3429.00,96.43
3428.00,96.30
3427.00,96.18
3426.00,96.06
3425.00,95.94
3424.00,95.82
3423.00,95.72
3422.00,95.61
3421.00,95.52
3420.00,95.42
3419.00,95.34
3418.00,95.26
3417.00,95.19
3416.00,95.13
3415.00,95.09
3414.00,95.05
3413.00,95.03
3412.00,95.01
3411.00,95.02
3410.00,95.03
3409.00,95.05
3408.00,95.09
3407.00,95.14
3406.00,95.20
3405.00,95.28
3404.00,95.36
3403.00,95.46
3402.00,95.55
3401.00,95.65
3400.00,95.76
3399.00,95.87
3398.00,95.99
3397.00,96.11
3396.00,96.23
3395.00,96.34
3394.00,96.46
3393.00,96.57
3392.00,96.69
3391.00,96.80
3390.00,96.90
3389.00,97.00
3388.00,97.09
3387.00,97.18
3386.00,97.27
3385.00,97.35
3384.00,97.42
3383.00,97.49
3382.00,97.55
3381.00,97.61
3380.00,97.67
3379.00,97.73
3378.00,97.78
3377.00,97.83
3376.00,97.88
3375.00,97.93
3374.00,97.97
3373.00,98.01
3372.00,98.05
3371.00,98.08
3370.00,98.12
3369.00,98.16
3368.00,98.20
3367.00,98.24
3366.00,98.27
3365.00,98.31
3364.00,98.35
3363.00,98.38
3362.00,98.41
3361.00,98.43
3360.00,98.45
3359.00,98.47
3358.00,98.49
3357.00,98.52
3356.00,98.55
3355.00,98.58
3354.00,98.60
3353.00,98.63
3352.00,98.64
3351.00,98.66
3350.00,98.68
3349.00,98.70
3348.00,98.72
3347.00,98.74
3346.00,98.77
3345.00,98.79
3344.00,98.80
3343.00,98.82
3342.00,98.84
3341.00,98.85
3340.00,98.86
3339.00,98.87
3338.00,98.88
3337.00,98.90
3336.00,98.92
3335.00,98.94
3334.00,98.95
3333.00,98.97
3332.00,98.98
3331.00,99.00
3330.00,99.01
3329.00,99.03
3328.00,99.05
3327.00,99.06
3326.00,99.08
3325.00,99.09
3324.00,99.10
3323.00,99.11
3322.00,99.12
3321.00,99.13
3320.00,99.15
3319.00,99.16
3318.00,99.18
3317.00,99.19
3316.00,99.20
3315.00,99.21
3314.00,99.21
3313.00,99.22
3312.00,99.24
3311.00,99.25
3310.00,99.27
3309.00,99.28
3308.00,99.30
3307.00,99.30
3306.00,99.31
3305.00,99.32
3304.00,99.32
3303.00,99.33
3302.00,99.34
3301.00,99.35
3300.00,99.36
3299.00,99.37
3298.00,99.38
3297.00,99.39
3296.00,99.39
3295.00,99.39
3294.00,99.39
3293.00,99.40
3292.00,99.41
3291.00,99.41
3290.00,99.43
3289.00,99.44
3288.00,99.45
3287.00,99.46
3286.00,99.46
3285.00,99.45
3284.00,99.45
3283.00,99.45
3282.00,99.46
3281.00,99.46
3280.00,99.47
3279.00,99.47
3278.00,99.47
3277.00,99.46
3276.00,99.46
3275.00,99.46
3274.00,99.47
3273.00,99.48
3272.00,99.49
3271.00,99.50
3270.00,99.51
3269.00,99.51
3268.00,99.51
3267.00,99.51
3266.00,99.50
3265.00,99.50
3264.00,99.50
3263.00,99.49
3262.00,99.49
3261.00,99.49
3260.00,99.49
3259.00,99.50
3258.00,99.50
3257.00,99.51
3256.00,99.51
3255.00,99.52
3254.00,99.52
3253.00,99.52
3252.00,99.52
3251.00,99.52
3250.00,99.52
3249.00,99.52
3248.00,99.51
3247.00,99.50
3246.00,99.49
3245.00,99.48
3244.00,99.48
3243.00,99.48
3242.00,99.49
3241.00,99.50
3240.00,99.50
3239.00,99.49
3238.00,99.48
3237.00,99.48
3236.00,99.48
3235.00,99.48
3234.00,99.48
3233.00,99.48
3232.00,99.47
3231.00,99.46
3230.00,99.45
3229.00,99.44
3228.00,99.43
3227.00,99.42
3226.00,99.41
3225.00,99.40
3224.00,99.40
3223.00,99.40
3222.00,99.40
3221.00,99.40
3220.00,99.40
3219.00,99.40
3218.00,99.40
3217.00,99.40
3216.00,99.40
3215.00,99.40
3214.00,99.40
3213.00,99.41
3212.00,99.41
3211.00,99.41
3210.00,99.41
3209.00,99.42
3208.00,99.43
3207.00,99.44
3206.00,99.44
3205.00,99.44
3204.00,99.44
3203.00,99.43
3202.00,99.43
3201.00,99.43
3200.00,99.43
3199.00,99.44
3198.00,99.44
3197.00,99.44
3196.00,99.44
3195.00,99.45
3194.00,99.45
3193.00,99.45
3192.00,99.45
3191.00,99.44
3190.00,99.44
3189.00,99.44
3188.00,99.45
3187.00,99.45
3186.00,99.45
3185.00,99.45
3184.00,99.45
3183.00,99.46
3182.00,99.46
3181.00,99.47
3180.00,99.47
3179.00,99.46
3178.00,99.46
3177.00,99.46
3176.00,99.46
3175.00,99.46
3174.00,99.47
3173.00,99.47
3172.00,99.47
3171.00,99.47
3170.00,99.46
3169.00,99.45
3168.00,99.45
3167.00,99.45
3166.00,99.44
3165.00,99.44
3164.00,99.44
3163.00,99.43
3162.00,99.43
3161.00,99.43
3160.00,99.43
3159.00,99.43
3158.00,99.43
3157.00,99.43
3156.00,99.43
3155.00,99.42
3154.00,99.42
3153.00,99.41
3152.00,99.40
3151.00,99.40
3150.00,99.39
3149.00,99.39
3148.00,99.38
3147.00,99.38
3146.00,99.37
3145.00,99.37
3144.00,99.37
3143.00,99.37
3142.00,99.36
3141.00,99.35
3140.00,99.34
3139.00,99.32
3138.00,99.30
3137.00,99.29
3136.00,99.27
3135.00,99.26
3134.00,99.24
3133.00,99.23
3132.00,99.22
3131.00,99.21
3130.00,99.20
3129.00,99.19
3128.00,99.19
3127.00,99.18
3126.00,99.17
3125.00,99.16
3124.00,99.15
3123.00,99.14
3122.00,99.13
3121.00,99.12
3120.00,99.12
3119.00,99.11
3118.00,99.10
3117.00,99.09
3116.00,99.08
3115.00,99.07
3114.00,99.06
3113.00,99.05
3112.00,99.04
3111.00,99.03
3110.00,99.03
3109.00,99.03
3108.00,99.03
3107.00,99.03
3106.00,99.03
3105.00,99.03
3104.00,99.03
3103.00,99.03
3102.00,99.03
3101.00,99.02
3100.00,99.01
3099.00,99.00
3098.00,98.99
3097.00,98.98
3096.00,98.97
3095.00,98.96
3094.00,98.95
3093.00,98.95
3092.00,98.93
3091.00,98.92
3090.00,98.90
3089.00,98.88
3088.00,98.85
3087.00,98.82
3086.00,98.79
3085.00,98.77
3084.00,98.74
3083.00,98.71
3082.00,98.68
3081.00,98.64
3080.00,98.60
3079.00,98.56
3078.00,98.51
3077.00,98.46
3076.00,98.42
3075.00,98.37
3074.00,98.32
3073.00,98.28
3072.00,98.23
3071.00,98.17
3070.00,98.12
3069.00,98.05
3068.00,97.99
3067.00,97.91
3066.00,97.82
3065.00,97.71
3064.00,97.60
3063.00,97.48
3062.00,97.37
3061.00,97.26
3060.00,97.18
3059.00,97.14
3058.00,97.13
3057.00,97.16
3056.00,97.21
3055.00,97.28
3054.00,97.37
3053.00,97.45
3052.00,97.52
3051.00,97.58
3050.00,97.61
3049.00,97.63
3048.00,97.62
3047.00,97.60
3046.00,97.56
3045.00,97.50
3044.00,97.42
3043.00,97.33
3042.00,97.23
3041.00,97.12
3040.00,97.01
3039.00,96.92
3038.00,96.84
3037.00,96.79
3036.00,96.77
3035.00,96.78
3034.00,96.81
3033.00,96.86
3032.00,96.93
3031.00,97.01
3030.00,97.11
3029.00,97.21
3028.00,97.31
3027.00,97.40
3026.00,97.48
3025.00,97.55
3024.00,97.60
3023.00,97.64
3022.00,97.67
3021.00,97.69
3020.00,97.70
3019.00,97.70
3018.00,97.70
3017.00,97.70
3016.00,97.70
3015.00,97.69
3014.00,97.68
3013.00,97.65
3012.00,97.60
3011.00,97.54
3010.00,97.47
3009.00,97.39
3008.00,97.32
3007.00,97.26
3006.00,97.20
3005.00,97.14
3004.00,97.09
3003.00,97.03
3002.00,96.97
3001.00,96.91
3000.00,96.85
2999.00,96.78
2998.00,96.71
2997.00,96.63
2996.00,96.54
2995.00,96.44
2994.00,96.33
2993.00,96.20
2992.00,96.06
2991.00,95.90
2990.00,95.72
2989.00,95.53
2988.00,95.32
2987.00,95.08
2986.00,94.83
2985.00,94.54
2984.00,94.22
2983.00,93.87
2982.00,93.48
2981.00,93.05
2980.00,92.58
2979.00,92.06
2978.00,91.50
2977.00,90.88
2976.00,90.21
2975.00,89.48
2974.00,88.71
2973.00,87.88
2972.00,87.01
2971.00,86.10
2970.00,85.15
2969.00,84.18
2968.00,83.19
2967.00,82.22
2966.00,81.26
2965.00,80.35
2964.00,79.48
2963.00,78.68
2962.00,77.96
2961.00,77.34
2960.00,76.81
2959.00,76.39
2958.00,76.06
2957.00,75.84
2956.00,75.70
2955.00,75.65
2954.00,75.68
2953.00,75.80
2952.00,75.98
2951.00,76.24
2950.00,76.56
2949.00,76.92
2948.00,77.31
2947.00,77.73
2946.00,78.17
2945.00,78.61
2944.00,79.06
2943.00,79.52
2942.00,79.98
2941.00,80.44
2940.00,80.89
2939.00,81.35
2938.00,81.80
2937.00,82.27
2936.00,82.74
2935.00,83.22
2934.00,83.69
2933.00,84.15
2932.00,84.60
2931.00,85.03
2930.00,85.44
2929.00,85.83
2928.00,86.20
2927.00,86.53
2926.00,86.84
2925.00,87.11
2924.00,87.36
2923.00,87.57
2922.00,87.75
2921.00,87.91
2920.00,88.04
2919.00,88.14
2918.00,88.23
2917.00,88.28
2916.00,88.32
2915.00,88.33
2914.00,88.33
2913.00,88.33
2912.00,88.33
2911.00,88.34
2910.00,88.38
2909.00,88.45
2908.00,88.56
2907.00,88.70
2906.00,88.88
2905.00,89.10
2904.00,89.34
2903.00,89.61
2902.00,89.88
2901.00,90.15
2900.00,90.41
2899.00,90.65
2898.00,90.87
2897.00,91.07
2896.00,91.24
2895.00,91.39
2894.00,91.51
2893.00,91.59
2892.00,91.65
2891.00,91.66
2890.00,91.64
2889.00,91.59
2888.00,91.49
2887.00,91.36
2886.00,91.19
2885.00,90.98
2884.00,90.71
2883.00,90.39
2882.00,90.01
2881.00,89.58
2880.00,89.09
2879.00,88.55
2878.00,87.97
2877.00,87.36
2876.00,86.75
2875.00,86.17
2874.00,85.63
2873.00,85.16
2872.00,84.77
2871.00,84.48
2870.00,84.29
2869.00,84.20
2868.00,84.20
2867.00,84.27
2866.00,84.41
2865.00,84.61
2864.00,84.85
2863.00,85.14
2862.00,85.48
2861.00,85.87
2860.00,86.31
2859.00,86.81
2858.00,87.36
2857.00,87.94
2856.00,88.56
2855.00,89.19
2854.00,89.82
2853.00,90.44
2852.00,91.05
2851.00,91.62
2850.00,92.15
2849.00,92.65
2848.00,93.10
2847.00,93.51
2846.00,93.89
2845.00,94.24
2844.00,94.56
2843.00,94.85
2842.00,95.12
2841.00,95.37
2840.00,95.59
2839.00,95.79
2838.00,95.98
2837.00,96.15
2836.00,96.32
2835.00,96.47
2834.00,96.60
2833.00,96.73
2832.00,96.85
2831.00,96.96
2830.00,97.07
2829.00,97.17
2828.00,97.25
2827.00,97.33
2826.00,97.41
2825.00,97.49
2824.00,97.56
2823.00,97.62
2822.00,97.69
2821.00,97.75
2820.00,97.81
2819.00,97.87
2818.00,97.92
2817.00,97.96
2816.00,98.01
2815.00,98.05
2814.00,98.10
2813.00,98.15
2812.00,98.19
2811.00,98.23
2810.00,98.27
2809.00,98.29
2808.00,98.32
2807.00,98.34
2806.00,98.37
2805.00,98.40
2804.00,98.43
2803.00,98.46
2802.00,98.48
2801.00,98.50
2800.00,98.53
2799.00,98.55
2798.00,98.57
2797.00,98.60
2796.00,98.62
2795.00,98.65
2794.00,98.67
2793.00,98.69
2792.00,98.70
2791.00,98.72
2790.00,98.74
2789.00,98.76
2788.00,98.77
2787.00,98.79
2786.00,98.80
2785.00,98.82
2784.00,98.83
2783.00,98.85
2782.00,98.86
2781.00,98.88
2780.00,98.90
2779.00,98.92
2778.00,98.93
2777.00,98.95
2776.00,98.95
2775.00,98.96
2774.00,98.96
2773.00,98.97
2772.00,98.98
2771.00,98.99
2770.00,99.00
2769.00,99.01
2768.00,99.02
2767.00,99.03
2766.00,99.03
2765.00,99.03
2764.00,99.03
2763.00,99.02
2762.00,99.02
2761.00,99.03
2760.00,99.03
2759.00,99.03
2758.00,99.03
2757.00,99.04
2756.00,99.04
2755.00,99.05
2754.00,99.05
2753.00,99.06
2752.00,99.07
2751.00,99.08
2750.00,99.09
2749.00,99.10
2748.00,99.10
2747.00,99.10
2746.00,99.11
2745.00,99.11
2744.00,99.12
2743.00,99.12
2742.00,99.11
2741.00,99.11
2740.00,99.10
2739.00,99.10
2738.00,99.09
2737.00,99.09
2736.00,99.09
2735.00,99.09
2734.00,99.09
2733.00,99.09
2732.00,99.09
2731.00,99.09
2730.00,99.09
2729.00,99.09
2728.00,99.08
2727.00,99.08
2726.00,99.08
2725.00,99.09
2724.00,99.09
2723.00,99.09
2722.00,99.09
2721.00,99.09
2720.00,99.09
2719.00,99.09
2718.00,99.10
2717.00,99.10
2716.00,99.10
2715.00,99.10
2714.00,99.10
2713.00,99.10
2712.00,99.10
2711.00,99.10
2710.00,99.10
2709.00,99.10
2708.00,99.09
2707.00,99.09
2706.00,99.09
2705.00,99.10
2704.00,99.10
2703.00,99.10
2702.00,99.10
2701.00,99.10
2700.00,99.10
2699.00,99.11
2698.00,99.12
2697.00,99.13
2696.00,99.14
2695.00,99.15
2694.00,99.15
2693.00,99.16
2692.00,99.16
2691.00,99.16
2690.00,99.16
2689.00,99.16
2688.00,99.17
2687.00,99.18
2686.00,99.19
2685.00,99.20
2684.00,99.21
2683.00,99.21
2682.00,99.21
2681.00,99.21
2680.00,99.21
2679.00,99.22
2678.00,99.22
2677.00,99.21
2676.00,99.21
2675.00,99.21
2674.00,99.21
2673.00,99.21
2672.00,99.21
2671.00,99.21
2670.00,99.21
2669.00,99.20
2668.00,99.19
2667.00,99.18
2666.00,99.17
2665.00,99.17
2664.00,99.17
2663.00,99.17
2662.00,99.18
2661.00,99.17
2660.00,99.17
2659.00,99.17
2658.00,99.17
2657.00,99.17
2656.00,99.17
2655.00,99.18
2654.00,99.18
2653.00,99.19
2652.00,99.19
2651.00,99.20
2650.00,99.21
2649.00,99.21
2648.00,99.21
2647.00,99.22
2646.00,99.22
2645.00,99.22
2644.00,99.21
2643.00,99.21
2642.00,99.21
2641.00,99.21
2640.00,99.21
2639.00,99.22
2638.00,99.23
2637.00,99.23
2636.00,99.23
2635.00,99.23
2634.00,99.22
2633.00,99.22
2632.00,99.22
2631.00,99.22
2630.00,99.22
2629.00,99.21
2628.00,99.21
2627.00,99.19
2626.00,99.18
2625.00,99.18
2624.00,99.19
2623.00,99.19
2622.00,99.19
2621.00,99.18
2620.00,99.18
2619.00,99.17
2618.00,99.17
2617.00,99.17
2616.00,99.16
2615.00,99.16
2614.00,99.16
2613.00,99.15
2612.00,99.15
2611.00,99.14
2610.00,99.13
2609.00,99.12
2608.00,99.12
2607.00,99.11
2606.00,99.11
2605.00,99.10
2604.00,99.08
2603.00,99.06
2602.00,99.05
2601.00,99.05
2600.00,99.05
2599.00,99.06
2598.00,99.06
2597.00,99.06
2596.00,99.07
2595.00,99.07
2594.00,99.08
2593.00,99.09
2592.00,99.09
2591.00,99.09
2590.00,99.09
2589.00,99.09
2588.00,99.09
2587.00,99.09
2586.00,99.09
2585.00,99.09
2584.00,99.09
2583.00,99.10
2582.00,99.10
2581.00,99.10
2580.00,99.09
2579.00,99.09
2578.00,99.09
2577.00,99.09
2576.00,99.11
2575.00,99.12
2574.00,99.12
2573.00,99.12
2572.00,99.11
2571.00,99.10
2570.00,99.10
2569.00,99.09
2568.00,99.08
2567.00,99.08
2566.00,99.09
2565.00,99.09
2564.00,99.09
2563.00,99.09
2562.00,99.09
2561.00,99.08
2560.00,99.08
2559.00,99.09
2558.00,99.10
2557.00,99.11
2556.00,99.13
2555.00,99.15
2554.00,99.17
2553.00,99.18
2552.00,99.20
2551.00,99.21
2550.00,99.22
2549.00,99.23
2548.00,99.25
2547.00,99.27
2546.00,99.29
2545.00,99.31
2544.00,99.32
2543.00,99.33
2542.00,99.34
2541.00,99.34
2540.00,99.34
2539.00,99.33
2538.00,99.34
2537.00,99.34
2536.00,99.35
2535.00,99.35
2534.00,99.35
2533.00,99.34
2532.00,99.33
2531.00,99.33
2530.00,99.33
2529.00,99.34
2528.00,99.35
2527.00,99.36
2526.00,99.37
2525.00,99.37
2524.00,99.38
2523.00,99.38
2522.00,99.38
2521.00,99.37
2520.00,99.37
2519.00,99.37
2518.00,99.39
2517.00,99.40
2516.00,99.41
2515.00,99.41
2514.00,99.41
2513.00,99.40
2512.00,99.39
2511.00,99.39
2510.00,99.39
2509.00,99.39
2508.00,99.39
2507.00,99.40
2506.00,99.40
2505.00,99.41
2504.00,99.42
2503.00,99.43
2502.00,99.43
2501.00,99.44
2500.00,99.44
2499.00,99.43
2498.00,99.43
2497.00,99.44
2496.00,99.45
2495.00,99.47
2494.00,99.48
2493.00,99.47
2492.00,99.46
2491.00,99.45
2490.00,99.45
2489.00,99.45
2488.00,99.46
2487.00,99.46
2486.00,99.47
2485.00,99.47
2484.00,99.48
2483.00,99.48
2482.00,99.48
2481.00,99.48
2480.00,99.48
2479.00,99.48
2478.00,99.48
2477.00,99.47
2476.00,99.47
2475.00,99.47
2474.00,99.48
2473.00,99.49
2472.00,99.49
2471.00,99.49
2470.00,99.49
2469.00,99.49
2468.00,99.49
2467.00,99.49
2466.00,99.49
2465.00,99.50
2464.00,99.50
2463.00,99.50
2462.00,99.50
2461.00,99.50
2460.00,99.49
2459.00,99.48
2458.00,99.48
2457.00,99.48
2456.00,99.48
2455.00,99.49
2454.00,99.49
2453.00,99.49
2452.00,99.49
2451.00,99.48
2450.00,99.48
2449.00,99.48
2448.00,99.48
2447.00,99.48
2446.00,99.49
2445.00,99.49
2444.00,99.49
2443.00,99.48
2442.00,99.46
2441.00,99.44
2440.00,99.43
2439.00,99.42
2438.00,99.42
2437.00,99.43
2436.00,99.44
2435.00,99.44
2434.00,99.45
2433.00,99.45
2432.00,99.45
2431.00,99.45
2430.00,99.46
2429.00,99.46
2428.00,99.47
2427.00,99.47
2426.00,99.47
2425.00,99.47
2424.00,99.48
2423.00,99.48
2422.00,99.49
2421.00,99.49
2420.00,99.50
2419.00,99.51
2418.00,99.52
2417.00,99.53
2416.00,99.53
2415.00,99.53
2414.00,99.53
2413.00,99.53
2412.00,99.52
2411.00,99.52
2410.00,99.51
2409.00,99.51
2408.00,99.52
2407.00,99.52
2406.00,99.52
2405.00,99.52
2404.00,99.51
2403.00,99.52
2402.00,99.52
2401.00,99.53
2400.00,99.52
2399.00,99.52
2398.00,99.51
2397.00,99.50
2396.00,99.48
2395.00,99.47
2394.00,99.45
2393.00,99.43
2392.00,99.42
2391.00,99.42
2390.00,99.41
2389.00,99.40
2388.00,99.39
2387.00,99.38
2386.00,99.38
2385.00,99.38
2384.00,99.38
2383.00,99.37
2382.00,99.35
2381.00,99.34
2380.00,99.32
2379.00,99.30
2378.00,99.28
2377.00,99.26
2376.00,99.23
2375.00,99.22
2374.00,99.21
2373.00,99.21
2372.00,99.22
2371.00,99.23
2370.00,99.23
2369.00,99.24
2368.00,99.25
2367.00,99.26
2366.00,99.28
2365.00,99.30
2364.00,99.32
2363.00,99.33
2362.00,99.35
2361.00,99.36
2360.00,99.37
2359.00,99.39
2358.00,99.39
2357.00,99.38
2356.00,99.38
2355.00,99.37
2354.00,99.38
2353.00,99.39
2352.00,99.40
2351.00,99.41
2350.00,99.42
2349.00,99.42
2348.00,99.42
2347.00,99.43
2346.00,99.45
2345.00,99.47
2344.00,99.48
2343.00,99.48
2342.00,99.47
2341.00,99.47
2340.00,99.47
2339.00,99.48
2338.00,99.49
2337.00,99.50
2336.00,99.50
2335.00,99.51
2334.00,99.51
2333.00,99.51
2332.00,99.52
2331.00,99.53
2330.00,99.54
2329.00,99.54
2328.00,99.55
2327.00,99.54
2326.00,99.54
2325.00,99.54
2324.00,99.54
2323.00,99.54
2322.00,99.55
2321.00,99.55
2320.00,99.56
2319.00,99.57
2318.00,99.58
2317.00,99.59
2316.00,99.61
2315.00,99.62
2314.00,99.62
2313.00,99.62
2312.00,99.61
2311.00,99.60
2310.00,99.58
2309.00,99.56
2308.00,99.54
2307.00,99.52
2306.00,99.50
2305.00,99.49
2304.00,99.49
2303.00,99.50
2302.00,99.50
2301.00,99.50
2300.00,99.50
2299.00,99.51
2298.00,99.52
2297.00,99.52
2296.00,99.53
2295.00,99.54
2294.00,99.55
2293.00,99.56
2292.00,99.56
2291.00,99.55
2290.00,99.55
2289.00,99.55
2288.00,99.55
2287.00,99.56
2286.00,99.56
2285.00,99.57
2284.00,99.57
2283.00,99.57
2282.00,99.58
2281.00,99.58
2280.00,99.59
2279.00,99.59
2278.00,99.57
2277.00,99.56
2276.00,99.55
2275.00,99.55
2274.00,99.56
2273.00,99.56
2272.00,99.56
2271.00,99.54
2270.00,99.53
2269.00,99.52
2268.00,99.52
2267.00,99.52
2266.00,99.51
2265.00,99.50
2264.00,99.50
2263.00,99.50
2262.00,99.49
2261.00,99.49
2260.00,99.49
2259.00,99.49
2258.00,99.49
2257.00,99.49
2256.00,99.47
2255.00,99.45
2254.00,99.45
2253.00,99.47
2252.00,99.50
2251.00,99.54
2250.00,99.57
2249.00,99.59
2248.00,99.59
2247.00,99.59
2246.00,99.58
2245.00,99.58
2244.00,99.57
2243.00,99.57
2242.00,99.57
2241.00,99.57
2240.00,99.57
2239.00,99.58
2238.00,99.59
2237.00,99.59
2236.00,99.60
2235.00,99.62
2234.00,99.64
2233.00,99.65
2232.00,99.65
2231.00,99.65
2230.00,99.65
2229.00,99.66
2228.00,99.66
2227.00,99.65
2226.00,99.63
2225.00,99.60
2224.00,99.59
2223.00,99.58
2222.00,99.59
2221.00,99.60
2220.00,99.62
2219.00,99.64
2218.00,99.66
2217.00,99.67
2216.00,99.67
2215.00,99.65
2214.00,99.64
2213.00,99.63
2212.00,99.64
2211.00,99.66
2210.00,99.67
2209.00,99.68
2208.00,99.68
2207.00,99.67
2206.00,99.67
2205.00,99.68
2204.00,99.70
2203.00,99.73
2202.00,99.74
2201.00,99.75
2200.00,99.75
2199.00,99.73
2198.00,99.72
2197.00,99.70
2196.00,99.70
2195.00,99.71
2194.00,99.71
2193.00,99.70
2192.00,99.68
2191.00,99.65
2190.00,99.63
2189.00,99.61
2188.00,99.62
2187.00,99.65
2186.00,99.69
2185.00,99.69
2184.00,99.67
2183.00,99.63
2182.00,99.60
2181.00,99.59
2180.00,99.59
2179.00,99.60
2178.00,99.62
2177.00,99.62
2176.00,99.60
2175.00,99.59
2174.00,99.60
2173.00,99.61
2172.00,99.61
2171.00,99.62
2170.00,99.62
2169.00,99.63
2168.00,99.64
2167.00,99.62
2166.00,99.59
2165.00,99.54
2164.00,99.51
2163.00,99.49
2162.00,99.46
2161.00,99.44
2160.00,99.46
2159.00,99.51
2158.00,99.56
2157.00,99.58
2156.00,99.56
2155.00,99.56
2154.00,99.58
2153.00,99.63
2152.00,99.69
2151.00,99.75
2150.00,99.77
2149.00,99.75
2148.00,99.72
2147.00,99.67
2146.00,99.63
2145.00,99.60
2144.00,99.60
2143.00,99.63
2142.00,99.66
2141.00,99.66
2140.00,99.64
2139.00,99.60
2138.00,99.58
2137.00,99.58
2136.00,99.61
2135.00,99.65
2134.00,99.67
2133.00,99.67
2132.00,99.65
2131.00,99.63
2130.00,99.62
2129.00,99.62
2128.00,99.62
2127.00,99.62
2126.00,99.61
2125.00,99.59
2124.00,99.57
2123.00,99.57
2122.00,99.58
2121.00,99.60
2120.00,99.62
2119.00,99.64
2118.00,99.63
2117.00,99.62
2116.00,99.60
2115.00,99.58
2114.00,99.57
2113.00,99.56
2112.00,99.55
2111.00,99.55
2110.00,99.55
2109.00,99.55
2108.00,99.55
2107.00,99.57
2106.00,99.58
2105.00,99.59
2104.00,99.59
2103.00,99.59
2102.00,99.58
2101.00,99.57
2100.00,99.56
2099.00,99.55
2098.00,99.53
2097.00,99.49
2096.00,99.46
2095.00,99.44
2094.00,99.45
2093.00,99.47
2092.00,99.48
2091.00,99.48
2090.00,99.47
2089.00,99.47
2088.00,99.47
2087.00,99.47
2086.00,99.47
2085.00,99.46
2084.00,99.44
2083.00,99.42
2082.00,99.41
2081.00,99.40
2080.00,99.41
2079.00,99.41
2078.00,99.41
2077.00,99.40
2076.00,99.38
2075.00,99.38
2074.00,99.38
2073.00,99.38
2072.00,99.37
2071.00,99.35
2070.00,99.35
2069.00,99.36
2068.00,99.38
2067.00,99.40
2066.00,99.41
2065.00,99.41
2064.00,99.42
2063.00,99.44
2062.00,99.46
2061.00,99.46
2060.00,99.45
2059.00,99.45
2058.00,99.45
2057.00,99.45
2056.00,99.44
2055.00,99.44
2054.00,99.43
2053.00,99.43
2052.00,99.44
2051.00,99.47
2050.00,99.49
2049.00,99.50
2048.00,99.48
2047.00,99.45
2046.00,99.45
2045.00,99.46
2044.00,99.49
2043.00,99.50
2042.00,99.50
2041.00,99.51
2040.00,99.53
2039.00,99.57
2038.00,99.60
2037.00,99.61
2036.00,99.60
2035.00,99.59
2034.00,99.61
2033.00,99.63
2032.00,99.64
2031.00,99.64
2030.00,99.61
2029.00,99.58
2028.00,99.58
2027.00,99.59
2026.00,99.59
2025.00,99.56
2024.00,99.53
2023.00,99.53
2022.00,99.55
2021.00,99.58
2020.00,99.61
2019.00,99.62
2018.00,99.62
2017.00,99.61
2016.00,99.59
2015.00,99.59
2014.00,99.60
2013.00,99.62
2012.00,99.64
2011.00,99.64
2010.00,99.62
2009.00,99.61
2008.00,99.59
2007.00,99.58
2006.00,99.57
2005.00,99.54
2004.00,99.51
2003.00,99.50
2002.00,99.49
2001.00,99.49
2000.00,99.50
1999.00,99.51
1998.00,99.51
1997.00,99.46
1996.00,99.38
1995.00,99.32
1994.00,99.31
1993.00,99.34
1992.00,99.37
1991.00,99.38
1990.00,99.36
1989.00,99.33
1988.00,99.34
1987.00,99.36
1986.00,99.38
1985.00,99.39
1984.00,99.39
1983.00,99.41
1982.00,99.44
1981.00,99.47
1980.00,99.52
1979.00,99.58
1978.00,99.62
1977.00,99.62
1976.00,99.56
1975.00,99.48
1974.00,99.44
1973.00,99.43
1972.00,99.44
1971.00,99.46
1970.00,99.47
1969.00,99.47
1968.00,99.47
1967.00,99.47
1966.00,99.49
1965.00,99.50
1964.00,99.52
1963.00,99.52
1962.00,99.53
1961.00,99.53
1960.00,99.53
1959.00,99.53
1958.00,99.53
1957.00,99.52
1956.00,99.50
1955.00,99.47
1954.00,99.45
1953.00,99.42
1952.00,99.41
1951.00,99.41
1950.00,99.44
1949.00,99.46
1948.00,99.46
1947.00,99.46
1946.00,99.44
1945.00,99.44
1944.00,99.44
1943.00,99.44
1942.00,99.42
1941.00,99.39
1940.00,99.37
1939.00,99.37
1938.00,99.38
1937.00,99.38
1936.00,99.38
1935.00,99.37
1934.00,99.36
1933.00,99.34
1932.00,99.31
1931.00,99.29
1930.00,99.28
1929.00,99.29
1928.00,99.29
1927.00,99.28
1926.00,99.26
1925.00,99.24
1924.00,99.23
1923.00,99.23
1922.00,99.23
1921.00,99.23
1920.00,99.23
1919.00,99.24
1918.00,99.26
1917.00,99.27
1916.00,99.28
1915.00,99.30
1914.00,99.31
1913.00,99.31
1912.00,99.32
1911.00,99.32
1910.00,99.31
1909.00,99.30
1908.00,99.29
1907.00,99.30
1906.00,99.31
1905.00,99.32
1904.00,99.32
1903.00,99.33
1902.00,99.33
1901.00,99.33
1900.00,99.32
1899.00,99.32
1898.00,99.32
1897.00,99.32
1896.00,99.31
1895.00,99.30
1894.00,99.28
1893.00,99.27
1892.00,99.26
1891.00,99.26
1890.00,99.26
1889.00,99.25
1888.00,99.23
1887.00,99.21
1886.00,99.20
1885.00,99.20
1884.00,99.19
1883.00,99.18
1882.00,99.16
1881.00,99.12
1880.00,99.09
1879.00,99.06
1878.00,99.04
1877.00,99.02
1876.00,99.00
1875.00,98.98
1874.00,98.95
1873.00,98.91
1872.00,98.88
1871.00,98.85
1870.00,98.82
1869.00,98.79
1868.00,98.75
1867.00,98.72
1866.00,98.67
1865.00,98.63
1864.00,98.58
1863.00,98.54
1862.00,98.50
1861.00,98.46
1860.00,98.40
1859.00,98.33
1858.00,98.23
1857.00,98.13
1856.00,98.03
1855.00,97.93
1854.00,97.83
1853.00,97.72
1852.00,97.62
1851.00,97.52
1850.00,97.43
1849.00,97.36
1848.00,97.30
1847.00,97.27
1846.00,97.26
1845.00,97.27
1844.00,97.31
1843.00,97.38
1842.00,97.45
1841.00,97.54
1840.00,97.63
1839.00,97.74
1838.00,97.85
1837.00,97.96
1836.00,98.07
1835.00,98.17
1834.00,98.26
1833.00,98.33
1832.00,98.39
1831.00,98.44
1830.00,98.49
1829.00,98.53
1828.00,98.57
1827.00,98.61
1826.00,98.65
1825.00,98.70
1824.00,98.73
1823.00,98.75
1822.00,98.78
1821.00,98.81
1820.00,98.84
1819.00,98.86
1818.00,98.88
1817.00,98.90
1816.00,98.91
1815.00,98.92
1814.00,98.93
1813.00,98.95
1812.00,98.97
1811.00,98.99
1810.00,99.00
1809.00,99.01
1808.00,99.01
1807.00,99.02
1806.00,99.02
1805.00,99.03
1804.00,99.04
1803.00,99.04
1802.00,99.04
1801.00,99.05
1800.00,99.04
1799.00,99.04
1798.00,99.02
1797.00,99.01
1796.00,99.01
1795.00,99.01
1794.00,99.00
1793.00,99.00
1792.00,99.00
1791.00,99.01
1790.00,99.02
1789.00,99.03
1788.00,99.03
1787.00,99.04
1786.00,99.04
1785.00,99.04
1784.00,99.04
1783.00,99.04
1782.00,99.04
1781.00,99.04
1780.00,99.03
1779.00,99.02
1778.00,99.01
1777.00,99.01
1776.00,99.01
1775.00,99.01
1774.00,99.01
1773.00,99.00
1772.00,98.98
1771.00,98.97
1770.00,98.96
1769.00,98.97
1768.00,98.98
1767.00,99.00
1766.00,99.00
1765.00,99.00
1764.00,99.00
1763.00,99.01
1762.00,99.02
1761.00,99.01
1760.00,99.01
1759.00,99.00
1758.00,99.00
1757.00,99.00
1756.00,99.00
1755.00,98.99
1754.00,98.99
1753.00,98.98
1752.00,98.97
1751.00,98.96
1750.00,98.94
1749.00,98.92
1748.00,98.91
1747.00,98.89
1746.00,98.87
1745.00,98.85
1744.00,98.83
1743.00,98.81
1742.00,98.77
1741.00,98.74
1740.00,98.70
1739.00,98.66
1738.00,98.63
1737.00,98.60
1736.00,98.57
1735.00,98.54
1734.00,98.51
1733.00,98.48
1732.00,98.46
1731.00,98.44
1730.00,98.43
1729.00,98.43
1728.00,98.42
1727.00,98.42
1726.00,98.41
1725.00,98.42
1724.00,98.42
1723.00,98.42
1722.00,98.43
1721.00,98.43
1720.00,98.44
1719.00,98.46
1718.00,98.48
1717.00,98.51
1716.00,98.54
1715.00,98.56
1714.00,98.59
1713.00,98.61
1712.00,98.62
1711.00,98.64
1710.00,98.65
1709.00,98.65
1708.00,98.65
1707.00,98.64
1706.00,98.61
1705.00,98.59
1704.00,98.56
1703.00,98.53
1702.00,98.49
1701.00,98.45
1700.00,98.40
1699.00,98.36
1698.00,98.33
1697.00,98.30
1696.00,98.28
1695.00,98.27
1694.00,98.25
1693.00,98.22
1692.00,98.20
1691.00,98.18
1690.00,98.17
1689.00,98.16
1688.00,98.15
1687.00,98.15
1686.00,98.16
1685.00,98.18
1684.00,98.21
1683.00,98.24
1682.00,98.27
1681.00,98.32
1680.00,98.37
1679.00,98.42
1678.00,98.46
1677.00,98.48
1676.00,98.51
1675.00,98.54
1674.00,98.56
1673.00,98.58
1672.00,98.59
1671.00,98.60
1670.00,98.61
1669.00,98.62
1668.00,98.63
1667.00,98.64
1666.00,98.65
1665.00,98.64
1664.00,98.64
1663.00,98.63
1662.00,98.62
1661.00,98.61
1660.00,98.60
1659.00,98.60
1658.00,98.58
1657.00,98.56
1656.00,98.52
1655.00,98.48
1654.00,98.44
1653.00,98.40
1652.00,98.35
1651.00,98.32
1650.00,98.29
1649.00,98.25
1648.00,98.21
1647.00,98.15
1646.00,98.10
1645.00,98.04
1644.00,97.98
1643.00,97.94
1642.00,97.89
1641.00,97.83
1640.00,97.77
1639.00,97.70
1638.00,97.62
1637.00,97.53
1636.00,97.43
1635.00,97.32
1634.00,97.21
1633.00,97.10
1632.00,96.99
1631.00,96.87
1630.00,96.73
1629.00,96.55
1628.00,96.34
1627.00,96.10
1626.00,95.84
1625.00,95.53
1624.00,95.17
1623.00,94.74
1622.00,94.26
1621.00,93.72
1620.00,93.12
1619.00,92.44
1618.00,91.63
1617.00,90.69
1616.00,89.73
1615.00,88.88
1614.00,88.24
1613.00,87.85
1612.00,87.73
1611.00,87.88
1610.00,88.30
1609.00,88.92
1608.00,89.64
1607.00,90.40
1606.00,91.12
1605.00,91.74
1604.00,92.25
1603.00,92.62
1602.00,92.89
1601.00,93.10
1600.00,93.30
1599.00,93.56
1598.00,93.88
1597.00,94.26
1596.00,94.64
1595.00,95.00
1594.00,95.29
1593.00,95.54
1592.00,95.74
1591.00,95.91
1590.00,96.07
1589.00,96.21
1588.00,96.34
1587.00,96.46
1586.00,96.57
1585.00,96.66
1584.00,96.75
1583.00,96.82
1582.00,96.87
1581.00,96.92
1580.00,96.96
1579.00,96.99
1578.00,97.01
1577.00,97.03
1576.00,97.05
1575.00,97.07
1574.00,97.08
1573.00,97.08
1572.00,97.07
1571.00,97.07
1570.00,97.06
1569.00,97.04
1568.00,97.02
1567.00,97.01
1566.00,96.99
1565.00,96.96
1564.00,96.93
1563.00,96.90
1562.00,96.85
1561.00,96.79
1560.00,96.72
1559.00,96.63
1558.00,96.54
1557.00,96.45
1556.00,96.38
1555.00,96.32
1554.00,96.24
1553.00,96.14
1552.00,96.03
1551.00,95.89
1550.00,95.75
1549.00,95.58
1548.00,95.41
1547.00,95.22
1546.00,95.01
1545.00,94.78
1544.00,94.53
1543.00,94.27
1542.00,93.97
1541.00,93.64
1540.00,93.28
1539.00,92.91
1538.00,92.55
1537.00,92.19
1536.00,91.81
1535.00,91.38
1534.00,90.84
1533.00,90.20
1532.00,89.48
1531.00,88.67
1530.00,87.72
1529.00,86.58
1528.00,85.20
1527.00,83.53
1526.00,81.53
1525.00,79.24
1524.00,76.69
1523.00,73.79
1522.00,70.47
1521.00,66.87
1520.00,63.37
1519.00,60.14
1518.00,57.07
1517.00,53.99
1516.00,50.83
1515.00,47.51
1514.00,43.88
1513.00,39.80
1512.00,35.34
1511.00,30.72
1510.00,26.23
1509.00,22.10
1508.00,18.50
1507.00,15.71
1506.00,14.12
1505.00,14.00
1504.00,15.27
1503.00,17.67
1502.00,21.04
1501.00,25.25
1500.00,30.15
1499.00,35.47
1498.00,41.01
1497.00,46.60
1496.00,52.00
1495.00,56.87
1494.00,61.00
1493.00,64.44
1492.00,67.36
1491.00,69.83
1490.00,71.88
1489.00,73.49
1488.00,74.74
1487.00,75.72
1486.00,76.52
1485.00,77.21
1484.00,77.81
1483.00,78.37
1482.00,78.91
1481.00,79.42
1480.00,79.87
1479.00,80.27
1478.00,80.61
1477.00,80.89
1476.00,81.14
1475.00,81.40
1474.00,81.73
1473.00,82.18
1472.00,82.77
1471.00,83.46
1470.00,84.21
1469.00,84.98
1468.00,85.74
1467.00,86.48
1466.00,87.17
1465.00,87.79
1464.00,88.31
1463.00,88.70
1462.00,88.97
1461.00,89.11
1460.00,89.12
1459.00,88.98
1458.00,88.67
1457.00,88.16
1456.00,87.46
1455.00,86.67
1454.00,85.88
1453.00,85.16
1452.00,84.64
1451.00,84.41
1450.00,84.48
1449.00,84.74
1448.00,85.07
1447.00,85.37
1446.00,85.57
1445.00,85.69
1444.00,85.80
1443.00,85.99
1442.00,86.34
1441.00,86.90
1440.00,87.65
1439.00,88.52
1438.00,89.45
1437.00,90.36
1436.00,91.16
1435.00,91.78
1434.00,92.23
1433.00,92.57
1432.00,92.83
1431.00,93.04
1430.00,93.20
1429.00,93.32
1428.00,93.42
1427.00,93.49
1426.00,93.56
1425.00,93.62
1424.00,93.68
1423.00,93.73
1422.00,93.78
1421.00,93.82
1420.00,93.87
1419.00,93.93
1418.00,93.99
1417.00,94.04
1416.00,94.06
1415.00,94.04
1414.00,93.96
1413.00,93.78
1412.00,93.49
1411.00,93.04
1410.00,92.41
1409.00,91.60
1408.00,90.62
1407.00,89.54
1406.00,88.45
1405.00,87.44
1404.00,86.66
1403.00,86.18
1402.00,86.05
1401.00,86.24
1400.00,86.72
1399.00,87.40
1398.00,88.19
1397.00,88.99
1396.00,89.77
1395.00,90.51
1394.00,91.20
1393.00,91.80
1392.00,92.32
1391.00,92.75
1390.00,93.13
1389.00,93.45
1388.00,93.72
1387.00,93.95
1386.00,94.14
1385.00,94.30
1384.00,94.43
1383.00,94.53
1382.00,94.60
1381.00,94.63
1380.00,94.64
1379.00,94.63
1378.00,94.60
1377.00,94.55
1376.00,94.48
1375.00,94.40
1374.00,94.29
1373.00,94.15
1372.00,93.98
1371.00,93.77
1370.00,93.52
1369.00,93.21
1368.00,92.86
1367.00,92.45
1366.00,91.99
1365.00,91.47
1364.00,90.90
1363.00,90.27
1362.00,89.59
1361.00,88.90
1360.00,88.20
1359.00,87.53
1358.00,86.91
1357.00,86.38
1356.00,85.95
1355.00,85.65
1354.00,85.50
1353.00,85.53
1352.00,85.73
1351.00,86.08
1350.00,86.58
1349.00,87.19
1348.00,87.86
1347.00,88.55
1346.00,89.22
1345.00,89.85
1344.00,90.40
1343.00,90.86
1342.00,91.24
1341.00,91.52
1340.00,91.71
1339.00,91.81
1338.00,91.83
1337.00,91.75
1336.00,91.60
1335.00,91.37
1334.00,91.07
1333.00,90.70
1332.00,90.27
1331.00,89.76
1330.00,89.18
1329.00,88.52
1328.00,87.80
1327.00,87.03
1326.00,86.23
1325.00,85.43
1324.00,84.64
1323.00,83.84
1322.00,82.99
1321.00,82.05
1320.00,80.94
1319.00,79.65
1318.00,78.19
1317.00,76.61
1316.00,75.03
1315.00,73.56
1314.00,72.33
1313.00,71.41
1312.00,70.87
1311.00,70.68
1310.00,70.83
1309.00,71.24
1308.00,71.85
1307.00,72.62
1306.00,73.49
1305.00,74.43
1304.00,75.42
1303.00,76.45
1302.00,77.51
1301.00,78.57
1300.00,79.58
1299.00,80.47
1298.00,81.19
1297.00,81.69
1296.00,81.96
1295.00,82.02
1294.00,81.98
1293.00,81.91
1292.00,81.88
1291.00,81.93
1290.00,82.04
1289.00,82.18
1288.00,82.31
1287.00,82.41
1286.00,82.52
1285.00,82.67
1284.00,82.92
1283.00,83.30
1282.00,83.79
1281.00,84.35
1280.00,84.93
1279.00,85.51
1278.00,86.05
1277.00,86.54
1276.00,86.98
1275.00,87.38
1274.00,87.74
1273.00,88.06
1272.00,88.33
1271.00,88.56
1270.00,88.74
1269.00,88.89
1268.00,89.00
1267.00,89.07
1266.00,89.11
1265.00,89.12
1264.00,89.08
1263.00,88.99
1262.00,88.85
1261.00,88.66
1260.00,88.40
1259.00,88.10
1258.00,87.77
1257.00,87.43
1256.00,87.12
1255.00,86.88
1254.00,86.74
1253.00,86.75
1252.00,86.89
1251.00,87.16
1250.00,87.52
1249.00,87.93
1248.00,88.34
1247.00,88.72
1246.00,89.05
1245.00,89.30
1244.00,89.45
1243.00,89.50
1242.00,89.45
1241.00,89.29
1240.00,89.03
1239.00,88.64
1238.00,88.13
1237.00,87.46
1236.00,86.61
1235.00,85.55
1234.00,84.25
1233.00,82.65
1232.00,80.73
1231.00,78.43
1230.00,75.74
1229.00,72.68
1228.00,69.31
1227.00,65.72
1226.00,62.05
1225.00,58.44
1224.00,55.04
1223.00,51.99
1222.00,49.39
1221.00,47.29
1220.00,45.71
1219.00,44.59
1218.00,43.88
1217.00,43.44
1216.00,43.17
1215.00,42.99
1214.00,42.81
1213.00,42.62
1212.00,42.42
1211.00,42.29
1210.00,42.32
1209.00,42.62
1208.00,43.28
1207.00,44.41
1206.00,46.06
1205.00,48.20
1204.00,50.79
1203.00,53.71
1202.00,56.82
1201.00,59.93
1200.00,62.90
1199.00,65.62
1198.00,68.00
1197.00,70.02
1196.00,71.67
1195.00,72.99
1194.00,74.01
1193.00,74.75
1192.00,75.25
1191.00,75.52
1190.00,75.59
1189.00,75.50
1188.00,75.29
1187.00,75.02
1186.00,74.77
1185.00,74.61
1184.00,74.59
1183.00,74.79
1182.00,75.24
1181.00,75.93
1180.00,76.83
1179.00,77.88
1178.00,79.03
1177.00,80.19
1176.00,81.33
1175.00,82.41
1174.00,83.43
1173.00,84.35
1172.00,85.17
1171.00,85.90
1170.00,86.53
1169.00,87.09
1168.00,87.57
1167.00,87.99
1166.00,88.36
1165.00,88.68
1164.00,88.91
1163.00,89.05
1162.00,89.03
1161.00,88.78
1160.00,88.16
1159.00,87.04
1158.00,85.37
1157.00,83.38
1156.00,81.60
1155.00,80.69
1154.00,81.09
1153.00,82.69
1152.00,84.95
1151.00,87.24
1150.00,89.14
1149.00,90.55
1148.00,91.54
1147.00,92.24
1146.00,92.74
1145.00,93.10
1144.00,93.38
1143.00,93.59
1142.00,93.74
1141.00,93.85
1140.00,93.91
1139.00,93.93
1138.00,93.93
1137.00,93.90
1136.00,93.85
1135.00,93.76
1134.00,93.63
1133.00,93.47
1132.00,93.27
1131.00,93.03
1130.00,92.75
1129.00,92.42
1128.00,92.04
1127.00,91.60
1126.00,91.11
1125.00,90.57
1124.00,89.99
1123.00,89.38
1122.00,88.76
1121.00,88.17
1120.00,87.64
1119.00,87.22
1118.00,86.93
1117.00,86.80
1116.00,86.80
1115.00,86.89
1114.00,87.04
1113.00,87.18
1112.00,87.29
1111.00,87.33
1110.00,87.28
1109.00,87.11
1108.00,86.76
1107.00,86.19
1106.00,85.36
1105.00,84.25
1104.00,82.91
1103.00,81.47
1102.00,80.16
1101.00,79.24
1100.00,78.91
1099.00,79.21
1098.00,80.08
1097.00,81.29
1096.00,82.65
1095.00,83.99
1094.00,85.21
1093.00,86.26
1092.00,87.15
1091.00,87.87
1090.00,88.45
1089.00,88.92
1088.00,89.29
1087.00,89.58
1086.00,89.82
1085.00,90.02
1084.00,90.21
1083.00,90.40
1082.00,90.61
1081.00,90.86
1080.00,91.13
1079.00,91.42
1078.00,91.72
1077.00,92.01
1076.00,92.29
1075.00,92.54
1074.00,92.77
1073.00,92.97
1072.00,93.15
1071.00,93.32
1070.00,93.47
1069.00,93.59
1068.00,93.70
1067.00,93.78
1066.00,93.84
1065.00,93.89
1064.00,93.94
1063.00,93.98
1062.00,94.02
1061.00,94.03
1060.00,94.04
1059.00,94.02
1058.00,94.00
1057.00,93.97
1056.00,93.91
1055.00,93.84
1054.00,93.75
1053.00,93.64
1052.00,93.52
1051.00,93.37
1050.00,93.19
1049.00,93.00
1048.00,92.80
1047.00,92.61
1046.00,92.45
1045.00,92.33
1044.00,92.25
1043.00,92.22
1042.00,92.26
1041.00,92.37
1040.00,92.52
1039.00,92.70
1038.00,92.89
1037.00,93.07
1036.00,93.23
1035.00,93.36
1034.00,93.46
1033.00,93.52
1032.00,93.53
1031.00,93.49
1030.00,93.40
1029.00,93.26
1028.00,93.09
1027.00,92.89
1026.00,92.70
1025.00,92.54
1024.00,92.43
1023.00,92.39
1022.00,92.45
1021.00,92.57
1020.00,92.76
1019.00,92.98
1018.00,93.20
1017.00,93.40
1016.00,93.57
1015.00,93.69
1014.00,93.77
1013.00,93.80
1012.00,93.78
1011.00,93.72
1010.00,93.62
1009.00,93.51
1008.00,93.47
1007.00,93.55
1006.00,93.78
1005.00,94.14
1004.00,94.54
1003.00,94.92
1002.00,95.23
1001.00,95.47
1000.00,95.66
999.00,95.83
998.00,95.97
997.00,96.09
996.00,96.20
995.00,96.29
994.00,96.36
993.00,96.43
992.00,96.48
991.00,96.54
990.00,96.58
989.00,96.63
988.00,96.66
987.00,96.69
986.00,96.71
985.00,96.73
984.00,96.75
983.00,96.76
982.00,96.77
981.00,96.77
980.00,96.76
979.00,96.76
978.00,96.76
977.00,96.76
976.00,96.76
975.00,96.75
974.00,96.73
973.00,96.70
972.00,96.67
971.00,96.63
970.00,96.59
969.00,96.55
968.00,96.50
967.00,96.44
966.00,96.38
965.00,96.30
964.00,96.23
963.00,96.17
962.00,96.10
961.00,96.03
960.00,95.96
959.00,95.87
958.00,95.77
957.00,95.65
956.00,95.51
955.00,95.34
954.00,95.16
953.00,94.97
952.00,94.77
951.00,94.57
950.00,94.36
949.00,94.14
948.00,93.92
947.00,93.72
946.00,93.54
945.00,93.39
944.00,93.27
943.00,93.17
942.00,93.08
941.00,93.01
940.00,92.95
939.00,92.91
938.00,92.90
937.00,92.91
936.00,92.95
935.00,93.04
934.00,93.17
933.00,93.34
932.00,93.52
931.00,93.70
930.00,93.89
929.00,94.05
928.00,94.19
927.00,94.27
926.00,94.31
925.00,94.30
924.00,94.23
923.00,94.10
922.00,93.91
921.00,93.65
920.00,93.37
919.00,93.06
918.00,92.77
917.00,92.52
916.00,92.35
915.00,92.29
914.00,92.35
913.00,92.52
912.00,92.76
911.00,93.06
910.00,93.37
909.00,93.65
908.00,93.89
907.00,94.08
906.00,94.22
905.00,94.32
904.00,94.39
903.00,94.45
902.00,94.49
901.00,94.52
900.00,94.52
899.00,94.51
898.00,94.50
897.00,94.50
896.00,94.49
895.00,94.48
894.00,94.46
893.00,94.44
892.00,94.42
891.00,94.40
890.00,94.39
889.00,94.38
888.00,94.35
887.00,94.31
886.00,94.25
885.00,94.19
884.00,94.11
883.00,94.01
882.00,93.88
881.00,93.74
880.00,93.60
879.00,93.46
878.00,93.34
877.00,93.23
876.00,93.13
875.00,93.03
874.00,92.93
873.00,92.85
872.00,92.77
871.00,92.70
870.00,92.63
869.00,92.55
868.00,92.44
867.00,92.30
866.00,92.12
865.00,91.89
864.00,91.60
863.00,91.27
862.00,90.90
861.00,90.49
860.00,90.07
859.00,89.69
858.00,89.36
857.00,89.13
856.00,89.01
855.00,89.00
854.00,89.08
853.00,89.24
852.00,89.42
851.00,89.61
850.00,89.78
849.00,89.91
848.00,90.00
847.00,90.03
846.00,90.01
845.00,89.96
844.00,89.86
843.00,89.71
842.00,89.49
841.00,89.20
840.00,88.84
839.00,88.41
838.00,87.90
837.00,87.29
836.00,86.58
835.00,85.76
834.00,84.81
833.00,83.70
832.00,82.38
831.00,80.80
830.00,78.90
829.00,76.60
828.00,73.83
827.00,70.56
826.00,66.76
825.00,62.45
824.00,57.73
823.00,52.73
822.00,47.62
821.00,42.59
820.00,37.88
819.00,33.74
818.00,30.47
817.00,28.37
816.00,27.70
815.00,28.62
814.00,31.11
813.00,34.92
812.00,39.68
811.00,44.90
810.00,50.16
809.00,55.13
808.00,59.63
807.00,63.56
806.00,66.90
805.00,69.69
804.00,71.97
803.00,73.83
802.00,75.33
801.00,76.53
800.00,77.48
799.00,78.24
798.00,78.86
797.00,79.39
796.00,79.84
795.00,80.25
794.00,80.61
793.00,80.95
792.00,81.26
791.00,81.55
790.00,81.77
789.00,81.90
788.00,81.87
787.00,81.70
786.00,81.35
785.00,80.84
784.00,80.15
783.00,79.27
782.00,78.17
781.00,76.83
780.00,75.24
779.00,73.43
778.00,71.42
777.00,69.25
776.00,67.03
775.00,64.89
774.00,62.97
773.00,61.44
772.00,60.43
771.00,60.01
770.00,60.22
769.00,60.99
768.00,62.24
767.00,63.84
766.00,65.63
765.00,67.50
764.00,69.36
763.00,71.16
762.00,72.86
761.00,74.44
760.00,75.89
759.00,77.19
758.00,78.37
757.00,79.43
756.00,80.37
755.00,81.22
754.00,82.00
753.00,82.71
752.00,83.35
751.00,83.92
750.00,84.43
749.00,84.89
748.00,85.29
747.00,85.65
746.00,85.98
745.00,86.28
744.00,86.57
743.00,86.83
742.00,87.07
741.00,87.29
740.00,87.49
739.00,87.68
738.00,87.86
737.00,88.02
736.00,88.17
735.00,88.31
734.00,88.44
733.00,88.55
732.00,88.65
731.00,88.73
730.00,88.81
729.00,88.88
728.00,88.94
727.00,88.98
726.00,89.02
725.00,89.05
724.00,89.07
723.00,89.10
722.00,89.13
721.00,89.16
720.00,89.17
719.00,89.17
718.00,89.16
717.00,89.16
716.00,89.15
715.00,89.14
714.00,89.12
713.00,89.09
712.00,89.03
711.00,88.97
710.00,88.91
709.00,88.84
708.00,88.76
707.00,88.66
706.00,88.55
705.00,88.40
704.00,88.21
703.00,87.96
702.00,87.66
701.00,87.31
700.00,86.98
699.00,86.75
698.00,86.71
697.00,86.85
696.00,87.12
695.00,87.41
694.00,87.66
693.00,87.82
692.00,87.90
691.00,87.94
690.00,87.95
689.00,87.95
688.00,87.92
687.00,87.86
686.00,87.80
685.00,87.73
684.00,87.65
683.00,87.59
682.00,87.52
681.00,87.46
680.00,87.39
679.00,87.32
678.00,87.26
677.00,87.19
676.00,87.13
675.00,87.06
674.00,87.01
673.00,86.97
672.00,86.91
671.00,86.84
670.00,86.77
669.00,86.69
668.00,86.62
667.00,86.57
666.00,86.53
665.00,86.48
664.00,86.42
663.00,86.36
662.00,86.29
661.00,86.22
660.00,86.15
659.00,86.08
658.00,86.00
657.00,85.93
656.00,85.86
655.00,85.80
654.00,85.76
653.00,85.73
652.00,85.72
651.00,85.72
650.00,85.73
649.00,85.76
648.00,85.81
647.00,85.87
646.00,85.94
645.00,86.01
644.00,86.06
643.00,86.10
642.00,86.10
641.00,86.05
640.00,85.95
639.00,85.81
638.00,85.68
637.00,85.58
636.00,85.53
635.00,85.50
634.00,85.47
633.00,85.42
632.00,85.34
631.00,85.24
630.00,85.14
629.00,85.07
628.00,85.03
627.00,85.01
626.00,84.98
625.00,84.96
624.00,84.94
623.00,84.94
622.00,84.95
621.00,84.97
620.00,84.98
619.00,85.00
618.00,85.04
617.00,85.07
616.00,85.09
615.00,85.11
614.00,85.13
613.00,85.15
612.00,85.17
611.00,85.19
610.00,85.22
609.00,85.24
608.00,85.25
607.00,85.23
606.00,85.19
605.00,85.16
604.00,85.12
603.00,85.07
602.00,85.01
601.00,84.96
600.00,84.91
599.00,84.86
598.00,84.82
597.00,84.76
596.00,84.70
595.00,84.62
594.00,84.54
593.00,84.46
592.00,84.38
591.00,84.30
590.00,84.23
589.00,84.16
588.00,84.08
587.00,84.00
586.00,83.93
585.00,83.87
584.00,83.82
583.00,83.76
582.00,83.69
581.00,83.62
580.00,83.54
579.00,83.48
578.00,83.43
577.00,83.39
576.00,83.38
575.00,83.37
574.00,83.36
573.00,83.35
572.00,83.34
571.00,83.33
570.00,83.34
569.00,83.34
568.00,83.32
567.00,83.27
566.00,83.21
565.00,83.13
564.00,83.05
563.00,82.96
562.00,82.88
561.00,82.80
560.00,82.74
559.00,82.68
558.00,82.64
557.00,82.60
556.00,82.56
555.00,82.51
554.00,82.43
553.00,82.32
552.00,82.21
551.00,82.13
550.00,82.09
549.00,82.05
548.00,82.00
547.00,81.94
546.00,81.88
545.00,81.82
544.00,81.74
543.00,81.67
542.00,81.61
541.00,81.57
540.00,81.51
539.00,81.45
538.00,81.37
537.00,81.29
536.00,81.21
535.00,81.14
534.00,81.07
533.00,80.97
532.00,80.84
531.00,80.62
530.00,80.30
529.00,79.85
528.00,79.28
527.00,78.59
526.00,77.78
525.00,76.86
524.00,75.89
523.00,74.96
522.00,74.14
521.00,73.43
520.00,72.74
519.00,72.00
518.00,71.11
517.00,70.00
516.00,68.64
515.00,67.05
514.00,65.30
513.00,63.50
512.00,61.79
511.00,60.31
510.00,59.16
509.00,58.38
508.00,57.97
507.00,57.92
506.00,58.20
505.00,58.70
504.00,59.37
503.00,60.16
502.00,61.05
501.00,62.00
500.00,62.96
499.00,63.93
498.00,64.90
497.00,65.84
496.00,66.72
495.00,67.57
494.00,68.38
493.00,69.14
492.00,69.82
491.00,70.47
490.00,71.10
489.00,71.68
488.00,72.17
487.00,72.60
486.00,72.98
485.00,73.32
484.00,73.59
483.00,73.83
482.00,74.09
481.00,74.35
480.00,74.59
479.00,74.79
478.00,74.97
477.00,75.12
476.00,75.23
475.00,75.29
474.00,75.31
473.00,75.34
472.00,75.37
471.00,75.42
470.00,75.45
469.00,75.42
468.00,75.30
467.00,75.11
466.00,74.89
465.00,74.68
464.00,74.49
463.00,74.34
462.00,74.24
461.00,74.18
460.00,74.12
459.00,74.05
458.00,74.03
457.00,74.08
456.00,74.19
455.00,74.32
454.00,74.45
453.00,74.55
452.00,74.61
451.00,74.67
450.00,74.77
449.00,74.92
448.00,75.08
447.00,75.25
446.00,75.41
445.00,75.57
444.00,75.76
443.00,75.98
442.00,76.17
441.00,76.29
440.00,76.31
439.00,76.31
438.00,76.37
437.00,76.51
436.00,76.71
435.00,76.89
434.00,77.04
433.00,77.11
432.00,77.13
431.00,77.14
430.00,77.18
429.00,77.27
428.00,77.40
427.00,77.49
426.00,77.52
425.00,77.46
424.00,77.37
423.00,77.32
422.00,77.33
421.00,77.32
420.00,77.24
419.00,77.05
418.00,76.78
417.00,76.43
416.00,75.98
415.00,75.49
414.00,75.01
413.00,74.63
412.00,74.42
411.00,74.46
410.00,74.72
409.00,75.04
408.00,75.27
407.00,75.43
406.00,75.68
405.00,76.16
404.00,76.77
403.00,77.29
402.00,77.51
401.00,77.50
400.00,77.51
